Part;Time [s];Np;ForceFluid.x [N];ForceFluid.y [N];ForceFluid.z [N];ForceFluid [N]
0;0.000000;39993; -1.045962580623E+02; -1.003337571528E-04; -2.824730551084E+02;  3.012165401549E+02
1;0.010086;39993; -2.712670354987E+02;  2.176285157881E-04; -4.349584541497E+02;  5.126155102849E+02
2;0.020045;39993; -1.694172713840E+02; -5.428678588354E-05; -6.084383865875E+02;  6.315848969984E+02
3;0.030051;39993; -2.556947479067E+02; -2.809654405106E-05; -4.853807098525E+02;  5.486111898276E+02
4;0.040062;39993; -2.215223991574E+02; -2.317099423722E-04; -5.440383045768E+02;  5.874094399780E+02
5;0.050050;39993; -2.185674785311E+02; -1.678086328394E-04; -5.800774824268E+02;  6.198883998673E+02
6;0.060079;39993; -2.550030831878E+02;  3.309918092680E-04; -5.736018985537E+02;  6.277306034118E+02
7;0.070082;39993; -1.987166022163E+02;  6.094261751011E-04; -6.159747959389E+02;  6.472350710744E+02
8;0.080050;39993; -2.652420070117E+02; -4.238512679992E-04; -6.011874602181E+02;  6.570994480345E+02
9;0.090017;39993; -2.051083007620E+02;  7.172570653884E-04; -7.030879725656E+02;  7.323947789331E+02
10;0.100012;39993; -2.723242660145E+02; -1.342101728787E-03; -6.400379563658E+02;  6.955638658320E+02
11;0.110072;39993; -1.951641329070E+02; -1.261568757920E-03; -7.154927789802E+02;  7.416326284271E+02
12;0.120041;39993; -2.522686749724E+02;  6.941130802709E-04; -7.256575783551E+02;  7.682567314362E+02
13;0.130008;39993; -2.150664583467E+02;  2.666619743852E-03; -7.442325071108E+02;  7.746841976918E+02
14;0.140083;39993; -2.380363567120E+02; -5.663314420573E-03; -7.378290461570E+02;  7.752760853411E+02
15;0.150050;39993; -2.163884370556E+02; -1.292408308196E-03; -7.641672974639E+02;  7.942138340562E+02
16;0.160033;39993; -2.134281090763E+02; -2.700858527414E-03; -7.677917730646E+02;  7.969038615397E+02
17;0.170073;39993; -1.962400961311E+02; -1.537407444935E-03; -7.625449897142E+02;  7.873912856199E+02
18;0.180026;39993; -2.030478499617E+02;  2.279607963761E-02; -7.966893446948E+02;  8.221571272232E+02
19;0.190051;39993; -2.056147481915E+02; -1.967010282141E-02; -7.796380218683E+02;  8.062957709200E+02
20;0.200050;39993; -1.813234990997E+02; -6.193973411854E-02; -7.501164745740E+02;  7.717207659443E+02
21;0.210003;39993; -1.969785762556E+02; -6.427834595272E-02; -7.302767913039E+02;  7.563760675435E+02
22;0.220038;39993; -1.867896432497E+02; -1.174571184492E-01; -7.619869603730E+02;  7.845473296112E+02
23;0.230068;39993; -1.946064225566E+02;  3.830007020104E-02; -7.518468236039E+02;  7.766243025623E+02
24;0.240049;39993; -1.717157252642E+02; -4.059999920893E-02; -7.384954561502E+02;  7.581964327968E+02
25;0.250017;39993; -1.750316796357E+02; -6.445203729541E-03; -7.183301084584E+02;  7.393471671924E+02
26;0.260082;39993; -1.778608123657E+02; -8.029462820988E-02; -7.255719662837E+02;  7.470536481936E+02
27;0.270030;39993; -1.568400685259E+02; -2.982269950228E-02; -7.249999923300E+02;  7.417707171782E+02
28;0.280052;39993; -1.633283959290E+02;  4.842226817009E-02; -7.249663774212E+02;  7.431368754494E+02
29;0.290033;39993; -1.514485256294E+02;  3.699589739506E-02; -7.329828082170E+02;  7.484653996183E+02
30;0.300011;39993; -1.476179072594E+02; -7.796852284835E-02; -7.129315042418E+02;  7.280538320503E+02
31;0.310026;39993; -1.551525375854E+02; -1.616981052176E-02; -7.372638436430E+02;  7.534124271101E+02
32;0.320045;39993; -1.382000922804E+02;  3.518875659084E-02; -7.252592283513E+02;  7.383090240904E+02
33;0.330016;39993; -1.413798084456E+02; -7.933958664848E-02; -7.321561940858E+02;  7.456815332761E+02
34;0.340059;39993; -1.417582172807E+02; -1.011300194632E-01; -7.057318786469E+02;  7.198283732477E+02
35;0.350022;39993; -1.198602615742E+02; -9.626522537862E-02; -6.856731334535E+02;  6.960704975155E+02
36;0.360020;39993; -1.428470210945E+02; -1.051008689718E-01; -6.822214448528E+02;  6.970160559835E+02
37;0.370057;39993; -1.104465914519E+02; -3.590347970582E-01; -6.910414068789E+02;  6.998119779559E+02
38;0.380025;39993; -1.248431796495E+02; -4.343118759584E-01; -6.988395017878E+02;  7.099032732639E+02
39;0.390067;39993; -1.173407151228E+02; -3.030195956436E-01; -6.960420393656E+02;  7.058636240880E+02
40;0.400051;39993; -1.040802918323E+02; -4.238590756098E-01; -6.721829337657E+02;  6.801931955337E+02
41;0.410077;39993; -1.158432707208E+02; -3.133220137655E-01; -6.722378505478E+02;  6.821462374382E+02
42;0.420008;39993; -9.664170873498E+01; -5.116915048897E-01; -6.446680892110E+02;  6.518717871962E+02
43;0.430011;39993; -1.069404610886E+02; -7.294010463486E-01; -6.745405286764E+02;  6.829653864368E+02
44;0.440023;39993; -9.379137757887E+01; -7.654570860126E-01; -6.877072251659E+02;  6.940739412902E+02
45;0.450078;39993; -8.728039089605E+01; -9.683950030672E-01; -6.778766269707E+02;  6.834731346710E+02
46;0.460055;39993; -9.331171568791E+01; -7.765714454458E-01; -6.561166856487E+02;  6.627192350721E+02
47;0.470079;39993; -8.072067886334E+01; -9.487852576892E-01; -6.187799051307E+02;  6.240234764679E+02
48;0.480019;39993; -8.879370618993E+01; -1.101463853472E+00; -6.435766846721E+02;  6.496741371912E+02
49;0.490026;39993; -7.623765783619E+01; -1.338715003948E+00; -6.422330968555E+02;  6.467436302948E+02
50;0.500051;39993; -7.633803703552E+01; -1.317163701734E+00; -6.625655772954E+02;  6.669500543785E+02
51;0.510031;39993; -7.474708953910E+01; -1.317090714670E+00; -6.624451181107E+02;  6.666501306017E+02
52;0.520034;39993; -6.638691431214E+01; -1.810842114560E+00; -6.304455886732E+02;  6.339338623378E+02
53;0.530035;39993; -5.837271898518E+01; -1.730962559737E+00; -6.202606085528E+02;  6.230036862455E+02
54;0.540025;39993; -4.498214861725E+01; -1.887207291042E+00; -6.158909724190E+02;  6.175343271048E+02
55;0.550021;39993; -4.120037529599E+01; -1.248664431573E+01; -6.419339913169E+02;  6.433759681701E+02
56;0.560039;39993; -2.206377976321E+01;  3.273630220245E+00; -6.645278785275E+02;  6.649021193924E+02
57;0.570038;39993; -1.740339970384E+01;  7.764472350074E-04; -6.633903458930E+02;  6.636185872517E+02
58;0.580021;39993; -5.727437810981E+00; -3.526116067940E+00; -6.417566246056E+02;  6.417918683371E+02
59;0.590068;39993; -6.378601703765E+00; -4.034011921066E+00; -6.256464003102E+02;  6.256919194244E+02
60;0.600039;39993;  3.992559593224E+00; -3.353069499272E+00; -6.373365018580E+02;  6.373578274468E+02
61;0.610024;39993; -6.848734033807E-01; -2.790819916379E+00; -6.484723586413E+02;  6.484787256720E+02
62;0.620030;39993;  4.575863807122E+00; -2.914851867337E+00; -6.389812364584E+02;  6.390042687157E+02
63;0.630065;39993; -1.363600536635E-01; -2.832397110847E+00; -6.421878785622E+02;  6.421941392131E+02
64;0.640038;39993;  5.593309450569E+00; -3.399505966226E+00; -6.307759839239E+02;  6.308099425712E+02
65;0.650028;39993;  6.010327564888E+00; -1.573617687450E+00; -6.188885319816E+02;  6.189197163836E+02
66;0.660064;39993;  1.192625615658E+01; -2.632042069548E+00; -6.180924146518E+02;  6.182130670582E+02
67;0.670028;39993;  1.676946461906E+01; -1.097456220974E+00; -6.267204300859E+02;  6.269457048588E+02
68;0.680068;39993;  8.854752164584E+00; -2.274887419623E+00; -6.269556123840E+02;  6.270222656720E+02
69;0.690082;39993;  1.133611976900E+01; -2.249099879782E+00; -6.192606856127E+02;  6.193685193866E+02
70;0.700071;39993;  1.479589879246E+01; -2.981207168783E+00; -6.076666576540E+02;  6.078540721601E+02
71;0.710008;39993;  1.705444213122E+01; -1.972659238646E+00; -6.083636455658E+02;  6.086058417622E+02
72;0.720074;39993;  1.882144749574E+01; -1.521706592908E+00; -6.114303666099E+02;  6.117218777267E+02
73;0.730060;39993;  1.560952465232E+01; -1.249976822429E+00; -6.147358907471E+02;  6.149353096665E+02
74;0.740071;39993;  1.819916398080E+01; -1.310144402152E+00; -6.068112194477E+02;  6.070854817038E+02
75;0.750075;39993;  1.756367026015E+01; -1.980083686792E+00; -6.015976433977E+02;  6.018572320626E+02
76;0.760053;39993;  2.095462444239E+01; -5.079442223236E-01; -5.916361280483E+02;  5.920073160907E+02
77;0.770011;39993;  2.322447999288E+01;  6.314126900314E-01; -5.849807040957E+02;  5.854418838085E+02
78;0.780016;39993;  2.623248232284E+01;  4.829150713577E-01; -5.885404091895E+02;  5.891249354633E+02
79;0.790026;39993;  2.717608638372E+01; -8.375652946000E-03; -5.941023998206E+02;  5.947236343158E+02
80;0.800020;39993;  2.984402018159E+01; -3.159416107869E-01; -5.919402334157E+02;  5.926921673988E+02
81;0.810042;39993;  2.898625642625E+01;  7.240316725520E-01; -5.877877068877E+02;  5.885024347034E+02
82;0.820073;39993;  3.072705532629E+01;  1.494681987065E+00; -5.824596493240E+02;  5.832714883259E+02
83;0.830037;39993;  2.828559504151E+01;  1.322052158542E+00; -5.766728878549E+02;  5.773676837992E+02
84;0.840042;39993;  3.118870514129E+01;  1.010343551428E+00; -5.712683276313E+02;  5.721199684307E+02
85;0.850034;39993;  3.415930477588E+01;  2.042339815487E+00; -5.725221825114E+02;  5.735439640711E+02
86;0.860073;39993;  3.699061274268E+01;  2.362344908749E+00; -5.774829963387E+02;  5.786713204962E+02
87;0.870002;39993;  3.488874981016E+01;  2.027826545284E+00; -5.771094055118E+02;  5.781665874763E+02
88;0.880076;39993;  3.761958356739E+01;  2.097155286365E+00; -5.718743588209E+02;  5.731142236979E+02
89;0.890053;39993;  4.126814560499E+01;  2.377846517387E+00; -5.655251068751E+02;  5.670338265940E+02
90;0.900064;39993;  4.398543222660E+01;  2.894713672157E+00; -5.627186879916E+02;  5.644425740768E+02
91;0.910076;39993;  4.483787736432E+01;  2.580847962294E+00; -5.673873719503E+02;  5.691621261744E+02
92;0.920048;39993;  4.461567111695E+01;  3.618833096568E+00; -5.670089706078E+02;  5.687730890364E+02
93;0.930076;39993;  4.391028099833E+01;  3.927521341340E+00; -5.632281681581E+02;  5.649508895541E+02
94;0.940014;39993;  4.491882490861E+01;  3.599009062988E+00; -5.595493779953E+02;  5.613609891258E+02
95;0.950011;39993;  4.626448001307E+01;  3.905524708858E+00; -5.611684018727E+02;  5.630858109512E+02
96;0.960006;39993;  5.101903532421E+01;  3.697672003405E+00; -5.616954811414E+02;  5.640198828750E+02
97;0.970077;39993;  5.288016138492E+01;  4.280238851002E+00; -5.628728985744E+02;  5.653676077229E+02
98;0.980023;39993;  5.502966394575E+01;  4.584850257556E+00; -5.637309323513E+02;  5.664290324970E+02
99;0.990015;39993;  5.523798065410E+01;  3.387352675654E+00; -5.640963376926E+02;  5.668045402633E+02
100;1.000022;39993;  5.353175645713E+01;  3.054068492724E+00; -5.647722093783E+02;  5.673117527161E+02
101;1.010044;39993;  5.177719733020E+01;  3.503556878563E+00; -5.633262254450E+02;  5.657115778807E+02
102;1.020080;39993;  5.085120325368E+01;  3.094796493110E+00; -5.626083711976E+02;  5.649102601115E+02
103;1.030048;39993;  5.109897238051E+01;  3.031185782479E+00; -5.665940466265E+02;  5.689016670200E+02
104;1.040049;39993;  5.429511198054E+01;  4.972736781714E+00; -5.850259025284E+02;  5.875610554872E+02
105;1.050014;39993;  6.037069310868E+01;  1.692974797113E+01; -6.034425958324E+02;  6.066911927973E+02
106;1.060015;39993;  6.749014312669E+01;  1.719695970470E+01; -6.043569573957E+02;  6.083567923472E+02
107;1.070013;39993;  6.822607517493E+01;  1.396256655430E+01; -5.887085950346E+02;  5.928132593542E+02
108;1.080029;39993;  5.655042774792E+01;  8.958251212335E+00; -5.746662361377E+02;  5.775114579815E+02
109;1.090039;39993;  4.414623791750E+01;  4.544878729218E+00; -5.644047634408E+02;  5.661468742646E+02
110;1.100020;39993;  3.583709522286E+01;  3.184680061462E+00; -5.593558024270E+02;  5.605116888075E+02
111;1.110014;39993;  3.288362356211E+01;  2.223750405836E+00; -5.587297811321E+02;  5.597010327741E+02
112;1.120001;39993;  3.310016670683E+01;  3.687845489532E-01; -5.587744700678E+02;  5.597541115862E+02
113;1.130013;39993;  3.529386451087E+01; -6.645413721620E-01; -5.570272597294E+02;  5.581446645530E+02
114;1.140018;39993;  3.829662983254E+01; -2.352275245317E+00; -5.550365445101E+02;  5.563611514089E+02
115;1.150063;39993;  4.027663591800E+01; -2.210368065052E+00; -5.557262263906E+02;  5.571882373366E+02
116;1.160001;39993;  3.993559544055E+01; -1.481802150233E+00; -5.590995184809E+02;  5.605259307886E+02
117;1.170002;39993;  3.889926874069E+01; -1.179902121066E+00; -5.616847783573E+02;  5.630313805783E+02
118;1.180032;39993;  3.887601413272E+01; -5.026091385924E-01; -5.636841078241E+02;  5.650233362475E+02
119;1.190066;39993;  3.851963652889E+01;  9.696748649711E-01; -5.652548718785E+02;  5.665666534928E+02
120;1.200021;39993;  3.892817091600E+01;  2.756171307637E+00; -5.700226317043E+02;  5.713569809027E+02
121;1.210032;39993;  4.113326448838E+01;  7.278295848670E+00; -5.731942166326E+02;  5.747143020832E+02
122;1.220070;39993;  4.243593749836E+01;  1.347141586104E+01; -5.753421584816E+02;  5.770622905397E+02
123;1.230050;39993;  4.128830757456E+01;  1.253871165594E+01; -5.755010510194E+02;  5.771164556282E+02
124;1.240039;39993;  3.848957242425E+01;  5.903923055643E+00; -5.723286005665E+02;  5.736517502103E+02
125;1.250046;39993;  3.416803070233E+01; -4.672490497843E-01; -5.643860780807E+02;  5.654195944386E+02
126;1.260071;39993;  2.989145491491E+01; -4.158086166803E+00; -5.556886751475E+02;  5.565075852535E+02
127;1.270038;39993;  2.741104792083E+01; -4.883858464077E+00; -5.498107141732E+02;  5.505152486910E+02
128;1.280037;39993;  2.690072631376E+01; -3.104088300989E+00; -5.496276191724E+02;  5.502942887197E+02
129;1.290008;39993;  2.796258812682E+01; -4.478400627929E-01; -5.538766330619E+02;  5.545822135153E+02
130;1.300021;39993;  3.037531376698E+01;  1.811138123245E+00; -5.594523179706E+02;  5.602792482240E+02
131;1.310033;39993;  3.261983076375E+01;  2.695972479401E+00; -5.636698069598E+02;  5.646193168010E+02
132;1.320014;39993;  3.363261260027E+01;  2.488873582099E+00; -5.638932054334E+02;  5.649007826654E+02
133;1.330017;39993;  3.197683596451E+01;  1.424098720471E+00; -5.611427018383E+02;  5.620548709173E+02
134;1.340041;39993;  2.881560386966E+01;  1.722112997699E-01; -5.578676513121E+02;  5.586113900231E+02
135;1.350011;39993;  2.596702284489E+01; -1.118133130487E+00; -5.565280867250E+02;  5.571346765468E+02
136;1.360019;39993;  2.403908136905E+01; -3.038137482539E+00; -5.564911005612E+02;  5.570183594068E+02
137;1.370075;39993;  2.338689087934E+01; -3.439194927237E+00; -5.562802363696E+02;  5.567822519640E+02
138;1.380050;39993;  2.401400763931E+01; -3.828644298989E+00; -5.551465558107E+02;  5.556788906451E+02
139;1.390027;39993;  2.559222782499E+01; -3.160567586410E+00; -5.538371026197E+02;  5.544370907062E+02
140;1.400027;39993;  2.700644411004E+01; -2.095220971702E+00; -5.553332888751E+02;  5.559935248789E+02
141;1.410041;39993;  2.718707668883E+01; -1.607748367036E+00; -5.573045730746E+02;  5.579696310405E+02
142;1.420060;39993;  2.579672561450E+01; -1.471186297852E+00; -5.590100341799E+02;  5.596068742925E+02
143;1.430065;39993;  2.389550750009E+01; -2.053655834965E+00; -5.590248775242E+02;  5.595391196975E+02
144;1.440016;39993;  2.229958525337E+01; -3.587500568395E+00; -5.570398950436E+02;  5.574976110558E+02
145;1.450030;39993;  2.160665071166E+01; -5.382243242172E+00; -5.529705073748E+02;  5.534186461654E+02
146;1.460061;39993;  2.173755055044E+01; -6.259572583493E+00; -5.494065214319E+02;  5.498720116034E+02
147;1.470006;39993;  2.238372065862E+01; -5.978870688070E+00; -5.492160688026E+02;  5.497045279750E+02
148;1.480073;39993;  2.285616470948E+01; -4.919675485008E+00; -5.520236250310E+02;  5.525184974863E+02
149;1.490044;39993;  2.259279527409E+01; -3.954311492473E+00; -5.543115974903E+02;  5.547859209550E+02
150;1.500033;39993;  2.200293381023E+01; -3.617961820048E+00; -5.553722412892E+02;  5.558197056048E+02
151;1.510083;39993;  2.132260985485E+01; -3.959381026199E+00; -5.537969237433E+02;  5.542214026331E+02
152;1.520074;39993;  2.103409117731E+01; -4.801167076969E+00; -5.504913321496E+02;  5.509139596787E+02
153;1.530011;39993;  2.078255265253E+01; -5.559469114205E+00; -5.479848153664E+02;  5.484069474977E+02
154;1.540008;39993;  2.037375051673E+01; -6.126221441783E+00; -5.477233267753E+02;  5.481363543800E+02
155;1.550027;39993;  1.992539502185E+01; -5.866794135452E+00; -5.492199488993E+02;  5.496125843802E+02
156;1.560025;39993;  1.954885587172E+01; -5.178210979193E+00; -5.506523342834E+02;  5.510235610994E+02
157;1.570022;39993;  1.938696811691E+01; -4.969140503498E+00; -5.507795432187E+02;  5.511430414314E+02
158;1.580017;39993;  1.945372011621E+01; -4.735364147317E+00; -5.497764142115E+02;  5.501408697082E+02
159;1.590026;39993;  1.954095381781E+01; -4.592744445710E+00; -5.482205008854E+02;  5.485878778908E+02
160;1.600025;39993;  1.939848335487E+01; -4.776058282232E+00; -5.467988341389E+02;  5.471636655562E+02
